# Velocity (km/s), Number Density (cm^-3), Temperature (K) at 1 AU
# Median values from OMNI 1994-present (non-ICME periods)
# Use linear interpolation between values
2.650000e+02 9.200000e+00 1.719900e+04
2.950000e+02 9.000000e+00 2.260800e+04
3.250000e+02 8.000000e+00 3.132500e+04
3.550000e+02 6.800000e+00 4.392300e+04
3.850000e+02 5.800000e+00 5.914200e+04
4.150000e+02 5.100000e+00 7.464600e+04
4.450000e+02 4.500000e+00 9.049500e+04
4.750000e+02 4.100000e+00 1.131550e+05
5.050000e+02 3.800000e+00 1.285470e+05
5.350000e+02 3.500000e+00 1.476445e+05
5.650000e+02 3.300000e+00 1.654700e+05
5.950000e+02 3.100000e+00 1.838320e+05
6.250000e+02 3.000000e+00 1.970800e+05
6.550000e+02 2.800000e+00 2.205055e+05
6.850000e+02 2.800000e+00 2.341480e+05
7.150000e+02 2.700000e+00 2.737030e+05
7.450000e+02 2.700000e+00 2.884590e+05
7.750000e+02 2.600000e+00 2.820260e+05
8.050000e+02 2.400000e+00 3.194670e+05
8.350000e+02 2.300000e+00 3.480400e+05
